#PRES TEMP PSAL DENS TEMP_med TEMP_medm TEMP_medp PSAL_med PSAL_medm PSAL_medp DENS_med DENS_medm DENS_medp SPIKE_T SPIKE_S 
4.4 28.4 32.989 1020.7543 28.4 20.7875 29.9969 32.989 32.8229 33.8208 1020.7543 1020.2743 1021.4698 0 0 
9.4 28.398 32.986 1020.7531 28.398 20.4138 30.0124 32.986 32.8222 34.0104 1020.7531 1020.2731 1021.5206 0 0 
19.6 28.46 33.1 1020.8191 28.46 19.5342 30.0328 33.1 32.825 34.4735 1020.8191 1020.2811 1021.6321 0 0 
29.1 28.539 33.26 1020.914 28.539 18.8927 30.039 33.26 32.8327 34.743 1020.914 1020.3037 1022.2742 0 0 
39.3 28.697 33.518 1021.0563 28.46 17.3277 30.0319 33.518 32.8475 34.7853 1021.0563 1020.3472 1023.6611 0 0 
49.6 28.762 33.719 1021.1864 28.4 16.5166 30.0101 33.719 32.872 34.8096 1021.1864 1020.4138 1024.1758 0 0 
59.7 28.603 33.795 1021.297 28.398 15.6858 29.9739 33.795 32.914 34.8369 1021.297 1020.484 1024.5114 0 0 
69.5 27.619 34.298 1021.9974 27.619 14.7032 29.9235 34.298 33.0257 34.8617 1021.297 1020.5816 1024.8303 0 0 
79.4 26.093 34.732 1022.8101 26.093 14.0922 29.8714 34.671 33.188 34.9023 1021.297 1020.703 1025.0016 0 0 
89.4 23.878 34.683 1023.4467 23.878 13.7838 29.8367 34.683 33.3614 34.9261 1023.4467 1020.8247 1025.4226 0 0 
99.6 22.204 34.722 1023.9596 22.204 13.1483 29.7855 34.722 33.5901 34.9439 1023.9596 1020.8493 1025.6422 0 0 
109.2 20.88 34.671 1024.2869 20.88 12.7831 29.7209 34.732 33.7184 34.9744 1024.2869 1020.8906 1025.8514 0 0 
119.5 19.996 34.79 1024.6141 19.996 12.4586 29.631 34.788 34.0798 35.0046 1024.6141 1020.9619 1026.1055 0 0 
129.3 19.341 34.788 1024.7837 19.341 12.1934 29.5211 34.79 34.4955 35.0363 1024.7837 1021.0791 1026.2556 0 0 
139.5 17.776 34.829 1025.2081 17.776 11.9383 29.3729 34.829 34.5943 35.0605 1025.2081 1022.4628 1026.3747 0 0 
149.6 16.974 34.861 1025.426 16.974 11.6313 29.173 34.861 34.6186 35.0824 1025.426 1023.7434 1026.4852 0 0 
159.5 16.152 34.89 1025.6404 16.152 11.4361 28.8642 34.89 34.6521 35.0965 1025.6404 1024.0759 1026.5971 0 0 
169.4 15.165 34.922 1025.8876 15.165 11.254 28.0808 34.922 34.6757 35.1146 1025.8876 1024.3962 1026.6873 0 0 
179 14.567 34.943 1026.0344 14.567 11.0625 26.5678 34.943 34.7129 35.1287 1026.0344 1024.5625 1026.7542 0 0 
189.2 14.25 34.952 1026.1095 14.25 10.9122 25.078 34.952 34.7452 35.1451 1026.1095 1024.9869 1026.8223 0 0 
198.7 13.644 34.975 1026.2544 13.644 10.804 22.6997 34.975 34.7731 35.1593 1026.2544 1025.1952 1026.8736 0 0 
209.3 13.236 34.991 1026.3505 13.236 10.71 21.3329 34.991 34.7992 35.1681 1026.3505 1025.4209 1026.9438 0 0 
219.3 12.966 35.007 1026.4175 12.966 10.6421 20.4622 35.007 34.8139 35.174 1026.4175 1025.6697 1026.9868 0 0 
229.2 12.718 35.012 1026.471 12.718 10.592 19.8028 35.012 34.8374 35.1821 1026.471 1025.7735 1027.022 0 0 
239.3 12.411 35.021 1026.5385 12.411 10.5565 18.2422 35.021 34.8509 35.1848 1026.5385 1025.895 1027.0649 0 0 
248.7 12.239 35.021 1026.5721 12.239 10.5367 17.4697 35.021 34.8572 35.1868 1026.5721 1026.009 1027.0879 0 0 
259.3 12.029 35.026 1026.6166 12.029 10.529 16.6182 35.026 34.8602 35.1898 1026.6166 1026.0662 1027.0966 0 0 
461.5 NaN NaN NaN NaN NaN NaN NaN NaN NaN NaN NaN NaN 0 0 
1998.7 11.812 35.011 1026.6998 NaN 1.7261 3.7277 NaN 34.6438 34.9313 NaN 1027.5252 1028.0056 1 1 
NaN NaN NaN 1026.6953 NaN NaN NaN NaN NaN NaN NaN NaN NaN 0 0 
NaN NaN NaN 1026.7237 NaN NaN NaN NaN NaN NaN NaN NaN NaN 0 0 
NaN NaN NaN 1026.7445 NaN NaN NaN NaN NaN NaN NaN NaN NaN 0 0 
NaN NaN NaN 1026.7696 NaN NaN NaN NaN NaN NaN NaN NaN NaN 0 0 
NaN NaN NaN 1026.7892 NaN NaN NaN NaN NaN NaN NaN NaN NaN 0 0 
NaN NaN NaN 1026.7998 NaN NaN NaN NaN NaN NaN NaN NaN NaN 0 0 
NaN NaN NaN 1026.819 NaN NaN NaN NaN NaN NaN NaN NaN NaN 0 0 
NaN NaN NaN 1026.8281 NaN NaN NaN NaN NaN NaN NaN NaN NaN 0 0 
NaN NaN NaN 1026.8601 NaN NaN NaN NaN NaN NaN NaN NaN NaN 0 0 
NaN NaN NaN 1026.88 NaN NaN NaN NaN NaN NaN NaN NaN NaN 0 0 
NaN NaN NaN 1026.938 NaN NaN NaN NaN NaN NaN NaN NaN NaN 0 0 
499.1 9.971 35.033 1026.9995 9.971 8.2813 11.471 35.033 34.8692 35.1968 1026.9995 1026.5195 1027.4795 0 0 
549.4 9.598 35.03 1027.061 9.598 7.9557 11.2877 35.03 34.8662 35.1938 1027.061 1026.581 1027.541 0 0 
599.1 9.277 35.02 1027.1071 9.277 7.6538 10.9193 35.02 34.8562 35.1838 1027.1071 1026.6271 1027.5871 0 0 
649.2 8.972 35.011 1027.1502 8.972 7.2635 10.5952 35.011 34.8472 35.1748 1027.1502 1026.6702 1027.6302 0 0 
699.4 8.581 35.002 1027.2057 8.581 6.9232 10.2895 35.002 34.8382 35.1658 1027.2057 1026.7257 1027.6857 0 0 
749.3 8.243 34.992 1027.2507 8.243 6.5859 9.9008 34.992 34.8282 35.1558 1027.2507 1026.7707 1027.7307 0 0 
798.9 7.908 34.981 1027.2931 7.908 6.2429 9.5651 34.981 34.8172 35.1448 1027.2931 1026.8131 1027.7731 0 0 
849.4 7.558 34.969 1027.3356 7.558 6.0201 9.2231 34.969 34.8052 35.1328 1027.3356 1026.8556 1027.8156 0 0 
898.9 7.343 34.962 1027.3617 7.343 5.7231 8.8809 34.962 34.7982 35.1258 1027.3617 1026.8817 1027.8417 0 0 
949.3 7.039 34.952 1027.3972 7.039 5.3891 8.6589 34.952 34.7882 35.1158 1027.3972 1026.9172 1027.8772 0 0 
998.8 6.712 34.942 1027.4346 6.712 5.1078 8.3619 34.942 34.7782 35.1058 1027.4346 1026.9546 1027.9146 0 0 
1048.9 6.426 34.931 1027.4647 6.426 5.4165 7.426 34.931 34.7877 35.0743 1027.4647 1027.2247 1027.7047 0 0 
1099.2 6.112 34.919 1027.4966 6.112 5.112 7.1215 34.919 34.7757 35.0623 1027.4966 1027.2566 1027.7366 0 0 
1149.1 5.934 34.913 1027.5151 5.934 4.934 6.934 34.913 34.7697 35.0563 1027.5151 1027.2751 1027.7551 0 0 
1199.3 5.746 34.906 1027.5337 5.746 4.746 6.746 34.906 34.7627 35.0493 1027.5337 1027.2937 1027.7737 0 0 
1248.9 5.536 34.897 1027.5529 5.536 4.536 6.536 34.897 34.7537 35.0403 1027.5529 1027.3129 1027.7929 0 0 
1299.1 5.302 34.89 1027.576 5.302 4.302 6.302 34.89 34.7467 35.0333 1027.576 1027.336 1027.816 0 0 
1348.8 5.119 34.882 1027.5917 5.119 4.119 6.119 34.882 34.7387 35.0253 1027.5917 1027.3517 1027.8317 0 0 
1399.5 4.89 34.873 1027.6113 4.89 3.89 5.89 34.873 34.7297 35.0163 1027.6113 1027.3713 1027.8513 0 0 
1449 4.691 34.866 1027.6286 4.691 3.691 5.691 34.866 34.7227 35.0093 1027.6286 1027.3886 1027.8686 0 0 
1499.4 4.502 34.859 1027.6444 4.502 3.502 5.502 34.859 34.7157 35.0023 1027.6444 1027.4044 1027.8844 0 0 
1549 4.322 34.853 1027.6595 4.322 3.322 5.322 34.853 34.7097 34.9963 1027.6595 1027.4195 1027.8995 0 0 
1599.4 4.165 34.845 1027.6702 4.165 3.165 5.165 34.845 34.7017 34.9883 1027.6702 1027.4302 1027.9102 0 0 
1649.2 3.889 34.835 1027.6911 3.889 2.889 4.889 34.835 34.6917 34.9783 1027.6911 1027.4511 1027.9311 0 0 
1699.4 3.665 34.826 1027.7067 3.665 2.665 4.665 34.826 34.6827 34.9693 1027.7067 1027.4667 1027.9467 0 0 
1749.3 3.484 34.819 1027.7192 3.665 2.665 4.665 34.826 34.6827 34.9693 1027.7067 1027.4667 1027.9467 0 0 
1798.8 3.287 34.811 1027.7319 3.484 2.484 4.484 34.819 34.6757 34.9623 1027.7192 1027.4792 1027.9592 0 0 
1848.9 3.138 34.805 1027.7414 3.287 2.287 4.287 34.811 34.6677 34.9543 1027.7319 1027.4919 1027.9719 0 0 
1899.2 2.99 34.798 1027.7496 3.138 2.138 4.138 34.805 34.6617 34.9483 1027.7414 1027.5014 1027.9814 0 0 
1948.8 2.822 34.791 1027.7593 2.99 1.99 3.99 34.798 34.6547 34.9413 1027.7496 1027.5096 1027.9896 0 0 
1999.7 2.726 34.788 1027.7658 2.726 1.726 3.7279 34.788 34.6437 34.9313 1027.7658 1027.5249 1028.0058 0 0 
2000.4 2.728 34.787 1027.7648 2.728 1.7261 3.728 34.787 34.6437 34.9313 1027.7648 1027.5248 1028.0057 0 0 
